M1.H_b.cs Time [a],H,CA,HCO3,CO3,CO2aq,Omega
0.0,7.084480419753817e-09,0.00225406664753,0.0019874118808446,0.0001333273833426,1.626525964972263e-05,3.043150889708879
200.0,7.076336997766412e-09,0.0022543977276638645,0.001987433228169851,0.0001334822497470068,1.624673767467149e-05,3.0466856612188113
400.0,7.072292150019318e-09,0.0022544459469641728,0.0019873411397467677,0.00013355240360870256,1.62366986403296e-05,3.0482868985736857
600.0,7.069305084156145e-09,0.002254498469748072,0.0019872879516650436,0.00013360525904151433,1.6229406513134986e-05,3.0494933053399067
800.0,7.0666779922799205e-09,0.002254550102278206,0.001987245902639783,0.00013365209981921144,1.6223032078219743e-05,3.050562429706934
1000.0,7.064197720827884e-09,0.0022545989051303357,0.001987206196529627,0.00013369635430035445,1.6217014068132954e-05,3.051572522759745
1200.0,7.061798159853527e-09,0.00225464433438419,0.001987166156660912,0.0001337390888616391,1.6211178843119267e-05,3.052547924173425
1400.0,7.059458010706667e-09,0.0022546862918028424,0.001987124990323925,0.00013378065073945864,1.6205471037485748e-05,3.053496559497194
1600.0,7.05716957464477e-09,0.0022547248331163472,0.001987082493224257,0.0001338211699460452,1.6199871313746575e-05,3.054421396214774
1800.0,7.054929605079405e-09,0.002254760012051604,0.0019870386074948804,0.00013386070227836173,1.619437175078009e-05,3.0553237078723283
2000.0,7.052736075801153e-09,0.0022547919082258365,0.001986993338591414,0.0001338992848172113,1.6188967745449628e-05,3.0562043408262167
2200.0,7.050599643211833e-09,0.0022548199700033193,0.0019869465600892947,0.00013393670495701233,1.61836827315639e-05,3.057058442428405
2400.0,7.0485212055005595e-09,0.002254844619230019,0.001986898677258193,0.00013397297098591298,1.617852207261186e-05,3.0578862018529755
2600.0,7.046493504464608e-09,0.0022548661103629773,0.001986849674433068,0.0001340082179649546,1.617346898001213e-05,3.0586907018209555
2800.0,7.04451362134635e-09,0.00225488449818474,0.001986799504906207,0.0001340424966392664,1.616851637380114e-05,3.0594731005721703
3000.0,7.042579644766899e-09,0.002254899865195907,0.0019867481799141894,0.00013407584264085877,1.616365995821896e-05,3.0602342113947927
3200.0,7.0407084120919236e-09,0.0022549113378752517,0.001986695497468329,0.00013410792020346145,1.6158936732934117e-05,3.060966370541149
3400.0,7.038901954173396e-09,0.002254919513849496,0.0019866420555811324,0.00013413872913418186,1.6154356218851503e-05,3.061669573608532
3600.0,7.037150290504923e-09,0.0022549247062850467,0.0019865877980897615,0.00013416845409764257,1.614989504740926e-05,3.0623480355023616
3800.0,7.035449501663782e-09,0.0022549269949123964,0.001986532666160489,0.00013419716437595378,1.6145543740461905e-05,3.063003337562569
4000.0,7.033797307073436e-09,0.0022549264761367606,0.0019864766704382813,0.00013422490284923966,1.614129714642737e-05,3.0636364585129905
4200.0,7.0321983597944985e-09,0.002254922879611089,0.001986419731495421,0.00013425157405783398,1.613716529320127e-05,3.0642452195201337
4400.0,7.030652152383082e-09,0.0022549164917776083,0.001986362086935497,0.00013427720242105553,1.6133148940883704e-05,3.0648301779464084
4600.0,7.029154428331679e-09,0.002254907467293522,0.001986303731943885,0.00013430186767481858,1.612923827655705e-05,3.065393153736168
4800.0,7.027703046606561e-09,0.0022548958754481513,0.0019862446574438444,0.00013432560900215342,1.61254283077008e-05,3.0659350412283732
5000.0,7.026296329238002e-09,0.0022548818079224085,0.0019861848895057757,0.0001343484592083164,1.6121715389985332e-05,3.0664565891915263
5200.0,7.024982273407282e-09,0.00225486271904042,0.0019861238048624564,0.00013436945708898175,1.61182045848216e-05,3.0669358584731006
5400.0,7.023768087804214e-09,0.0022548401679949597,0.0019860630231179456,0.000134388572438507,1.611492555925122e-05,3.067372159639871
5600.0,7.022629672733571e-09,0.0022548148123122352,0.0019860023140568337,0.00013440624912770078,1.6111821132039177e-05,3.0677756238877882
5800.0,7.021558795214465e-09,0.0022547867432319364,0.0019859414826378743,0.00013442263029703107,1.6108870816768876e-05,3.0681495183479672
6000.0,7.020551807677848e-09,0.002254756050505845,0.0019858804867498177,0.00013443778187801356,1.610606589012029e-05,3.0684953478841908
6200.0,7.019649767102042e-09,0.002254720504075962,0.0019858187491631693,0.00013445087745639632,1.6103495845453406e-05,3.0687942498802223
6400.0,7.0188577804406295e-09,0.002254681543934092,0.001985757712879783,0.00013446191552715452,1.610118407825863e-05,3.0690461899843955
6600.0,7.018154109195818e-09,0.0022546398278082175,0.001985697225642753,0.00013447130108273225,1.6099079462540602e-05,3.0692604120075893
6800.0,7.017531683298096e-09,0.0022545953152572993,0.0019856370146886233,0.000134479150284338,1.609716354952881e-05,3.069439567288756
7000.0,7.016985572922739e-09,0.002254548329306546,0.001985577199282504,0.00013448556501202084,1.609542598052108e-05,3.0695859812043813
7200.0,7.016396782918399e-09,0.002254505041545417,0.0019855191981020593,0.00013449292172167874,1.6093605297413547e-05,3.0697538955291024
7400.0,7.015742832020329e-09,0.0022544621444348057,0.001985459338471014,0.00013450140298189588,1.6091620174893623e-05,3.0699474773269935
7600.0,7.015074809061926e-09,0.0022544184207436858,0.001985398272859703,0.00013451007394199143,1.6089593094266354e-05,3.070145388958257
7800.0,7.014407872577227e-09,0.0022543739175864027,0.00198533655459348,0.0001345186814964614,1.608756331113268e-05,3.070341853378294
8000.0,7.013746337386133e-09,0.0022543287102304824,0.001985274395761543,0.00013452715723446976,1.6085542440945995e-05,3.0705353091337018
8200.0,7.0133890836592576e-09,0.002254267038835892,0.001985208015678201,0.00013452951157884546,1.6084185291779943e-05,3.0705890462205776
8400.0,7.013388744007638e-09,0.0022541977861841055,0.0019851470172321155,0.00013452538447599502,1.6083690302532002e-05,3.0704948465415893
8600.0,7.0136078882362715e-09,0.0022541244565251846,0.0019850898429213245,0.00013451730680193,1.608372962084558e-05,3.0703104764564544
8800.0,7.0140050474657005e-09,0.0022540470596389053,0.001985035098716952,0.00013450598046097655,1.6084196816088794e-05,3.070051956685905
9000.0,7.014563636672801e-09,0.0022539658547768627,0.001984982450362334,0.00013449170220726438,1.6085051118208725e-05,3.0697260605391548
9200.0,7.015246235397176e-09,0.0022538826397431612,0.0019849322147279776,0.00013447521250759182,1.6086209263344508e-05,3.0693496889118754
9400.0,7.016043067535302e-09,0.00225379674829597,0.0019848834723944567,0.0001344566379507567,1.6087641367230725e-05,3.068925731149099
9600.0,7.016964738228601e-09,0.002253707938307183,0.0019848363651530053,0.00013443578657708886,1.6089372880866105e-05,3.068449805838499
9800.0,7.018009633319795e-09,0.0022536166854603694,0.001984791253949744,0.00013441271575531264,1.6091403014353422e-05,3.06792322240114
10000.0,7.019121504739415e-09,0.0022535288382104462,0.0019847513888579496,0.0001343887246762483,1.6093629142457325e-05,3.0673756344130667
10200.0,7.0216218593291276e-09,0.0022533712107410155,0.0019846968538806435,0.000134337178430186,1.6098919660327473e-05,3.0661991093764764
10400.0,7.025701883251268e-09,0.002253187129551097,0.001984672142768287,0.00013425749339140503,1.610807362974415e-05,3.0643803262384353
10600.0,7.030730355528796e-09,0.002252994047724591,0.0019846712298693253,0.0001341614089276329,1.6119595170253562e-05,3.062187231961142
10800.0,7.0364889294024166e-09,0.0022527944179472985,0.0019846888163946117,0.0001340528007763434,1.613294100448622e-05,3.0597082888967844
11000.0,7.042926663554084e-09,0.0022525858911190957,0.0019847210118743505,0.0001339324396223726,1.614796309468581e-05,3.0569610876571764
11200.0,7.0505229857674095e-09,0.0022523460338299056,0.0019847639647531173,0.00013379103453839414,1.6165729725907147e-05,3.053733566075864
11400.0,7.059348231947259e-09,0.002252092362489398,0.0019848352171141057,0.00013362857268764622,1.618654568483072e-05,3.050025431158249
11600.0,7.069094111239515e-09,0.002251834504466568,0.001984932707028763,0.0001334508987189027,1.6209688379198147e-05,3.0459700849682596
11800.0,7.079642061648731e-09,0.002251575150234606,0.001985054638515858,0.00013326025585937411,1.6234872433844305e-05,3.0416187283823435
12000.0,7.09092407979635e-09,0.0022513175167950795,0.001985201381742542,0.00013305806752626878,1.626194615815383e-05,3.0370038504004
12200.0,7.10095801602871e-09,0.0022511652833165337,0.0019853987598186956,0.00013288326174891907,1.6286576578238834e-05,3.033013969675742
12400.0,7.109371949689001e-09,0.002251061249637845,0.0019855844353155578,0.00013273840716114364,1.6307399495979827e-05,3.0297077143768267
12600.0,7.117068915345376e-09,0.002250980713805642,0.001985766668643686,0.00013260702258097797,1.6326552995313054e-05,3.0267089072900815
12800.0,7.1243398958652134e-09,0.00225092202373182,0.001985953697865041,0.00013248416293338964,1.6344771907079005e-05,3.023904678807574
13000.0,7.131304626140821e-09,0.0022508833053404937,0.001986147876390243,0.00013236771447512532,1.6362350188153883e-05,3.0212467834788885
13200.0,7.1374055900743016e-09,0.002250894554582042,0.0019863575009615437,0.00013226852681024913,1.6378076897115464e-05,3.018982859721829
13400.0,7.142578946717531e-09,0.0022509346566378157,0.001986561992832615,0.0001321863319026003,1.6391635421212324e-05,3.017106789704778
13600.0,7.14715954361904e-09,0.002250993266713312,0.001986763269820361,0.0001321149984464757,1.6403809370472457e-05,3.0154786285196615
13800.0,7.151277095899172e-09,0.002251068038285451,0.00198696355741547,0.0001320522404349904,1.6414914411284507e-05,3.0140461988589298
14000.0,7.155002214662718e-09,0.0022511563876481356,0.0019871629223441748,0.00013199673265198043,1.6425112855383058e-05,3.0127792531271713
14200.0,7.158513907891819e-09,0.00225124918317056,0.0019873591650276133,0.00013194500907147346,1.643479720393466e-05,3.01159868049391
14400.0,7.161869316131489e-09,0.002251348850982478,0.0019875563033771764,0.00013189627380265074,1.6444131714402196e-05,3.0104863150295933
14600.0,7.165037004886539e-09,0.002251455101731329,0.0019877530735674743,0.00013185101408192735,1.6453033646589245e-05,3.009453277734971
14800.0,7.16801704293109e-09,0.002251567194584711,0.0019879488381530958,0.00013180917821580766,1.6461497747922473e-05,3.008498388724087
15000.0,7.1708222352922e-09,0.0022516838967749945,0.001988142937518108,0.00013177047962844332,1.6469547826409312e-05,3.0076151070034403
15200.0,7.173978161420623e-09,0.0022517776864467627,0.0019883281252671605,0.00013172478058980108,1.6478330932165027e-05,3.0065720424309843
15400.0,7.177583917321629e-09,0.002251863801174228,0.0019885210395113946,0.00013167138083141662,1.6488212790589235e-05,3.0053532116239605
15600.0,7.181403047814465e-09,0.002251948342773785,0.001988719376866088,0.00013161448295384852,1.649863145458479e-05,3.004054537470138
15800.0,7.1853579605245575e-09,0.0022520318100477765,0.0019889210497779186,0.00013155538013492896,1.6509391534683636e-05,3.0027055363012103
16000.0,7.18941674720716e-09,0.002252114668780512,0.001989125426395049,0.00013149462119273138,1.6520414602415887e-05,3.001318734697738
16200.0,7.194192756199594e-09,0.002252164526748174,0.0019893236805631435,0.00013142042309251516,1.653303696365219e-05,2.999625189013223
16400.0,7.199782155058622e-09,0.0022522015841854983,0.0019895366694731615,0.0001313324573561684,1.654765351104281e-05,2.997617401849655
16600.0,7.205879583193731e-09,0.0022522340185055544,0.001989761682259925,0.00013123616812281478,1.656354065683748e-05,2.995419633778288
16800.0,7.2123715215536836e-09,0.0022522636949793774,0.001989996646518997,0.00013113352423019015,1.6580420816614825e-05,2.9930768228317848
17000.0,7.21920836820044e-09,0.0022522915804483404,0.001990240765554872,0.00013102540744673423,1.659817384801589e-05,2.9906090950663584
17200.0,7.224567945207804e-09,0.0022524125299962865,0.0019905194518214913,0.0001309465390873976,1.6612822324852143e-05,2.9888089523509778
17400.0,7.2281091094964e-09,0.0022525732916844647,0.0019907749231012684,0.00013089918429159812,1.6623098398591907e-05,2.987728095700556
17600.0,7.230669920120766e-09,0.002252750751706692,0.0019910137106877042,0.00013086852050949393,1.6630982311062687e-05,2.987028205599568
17800.0,7.232526367468135e-09,0.002252943679341181,0.0019912436068683062,0.0001308500362364373,1.663717307431845e-05,2.986606308532457
18000.0,7.233802779067571e-09,0.0022531492379440736,0.0019914661058397795,0.00013084156605214703,1.66419685820934e-05,2.9864129795387213
18200.0,7.234460938295574e-09,0.0022533705763015327,0.001991682781845144,0.00013084389722819436,1.6645293580940402e-05,2.9864661878166063
18400.0,7.23452938200867e-09,0.002253602230676817,0.0019918897222640807,0.00013085625420636814,1.6647180559185935e-05,2.986748231521214
18600.0,7.234093623569705e-09,0.0022538413885129305,0.0019920871711929422,0.00013087710865999414,1.664782792346899e-05,2.987224227130783
18800.0,7.23321303654877e-09,0.0022540850557195144,0.0019922743713467364,0.000130905342186389,1.6647365664614966e-05,2.987868647495257
19000.0,7.231895761309131e-09,0.0022543338898050732,0.0019924521504137874,0.00013094086969564294,1.6645819177032008e-05,2.98867955046721
19200.0,7.228924197008968e-09,0.002254650386572863,0.001992636726451032,0.00013100683006091554,1.6640520855363454e-05,2.9901850727330217
19400.0,7.224104479672199e-09,0.002254994458535591,0.0019927863085316233,0.00013110407500198395,1.6630674502485883e-05,2.992404654498693
19600.0,7.218067061544846e-09,0.002255348881456587,0.00199290569099277,0.0001312215952319084,1.6617771175362738e-05,2.9950870126406373
19800.0,7.211029546377712e-09,0.002255711775590162,0.00199300002242893,0.00013135587658061614,1.6602354891517542e-05,2.998151937456127
20000.0,7.203109035780633e-09,0.002256079508635311,0.0019930696857335,0.0001315049114509056,1.6584698740039613e-05,3.001553606241251
20200.0,7.196645295151703e-09,0.0022563302810899998,0.00199308253595726,0.00013162387256636984,1.6569923222976065e-05,3.0042688520916503
20400.0,7.192070071264288e-09,0.002256531896449942,0.001993112700054903,0.00013170959819751955,1.655963961044683e-05,3.0062255096376367
20600.0,7.188355749833996e-09,0.002256710990735585,0.0019931506622008557,0.00013178016426736465,1.6551402680876123e-05,3.0078361554993385
20800.0,7.185134895856113e-09,0.0022568711296949823,0.001993187749568724,0.0001318416900631292,1.6544294409610687e-05,3.0092404602672476
21000.0,7.1821965531399875e-09,0.0022570216418892498,0.001993225401851888,0.00013189812001868084,1.653784106425346e-05,3.0105284542647133
21200.0,7.179391673265913e-09,0.0022571681173533843,0.0019932637401864524,0.00013195218858346597,1.653170047273035e-05,3.0117625503438976
21400.0,7.1766746444412644e-09,0.0022573103221060053,0.0019933010865014547,0.00013200461780227529,1.652575370329019e-05,3.012959228924593
21600.0,7.174029924659648e-09,0.002257448248605434,0.0019933369355939617,0.00013205565650573612,1.6519960800444626e-05,3.014124169478832
21800.0,7.171451335584884e-09,0.0022575819704957036,0.0019933711569492902,0.00013210540677320668,1.6514306478259896e-05,3.0152597019322602
22000.0,7.16893567725374e-09,0.0022577115822848895,0.001993403734731619,0.00013215392377663535,1.6508783259031566e-05,3.016367085565302
22200.0,7.166491929678507e-09,0.002257836598213325,0.0019934345371289785,0.00013220103054217315,1.6503410752630003e-05,3.017442281011756
22400.0,7.164120215152047e-09,0.002257957453123285,0.0019934639570858914,0.00013224674801869682,1.649819251545951e-05,3.0184857664224065
22600.0,7.1618135543016055e-09,0.002258074376570293,0.001993491974502808,0.00013229120103374248,1.649311232696936e-05,3.0195003909421025
22800.0,7.159568610356044e-09,0.0022581874695012426,0.0019935185738988166,0.000132334447801213,1.6488162392214742e-05,3.0204874832828166
23000.0,7.157383040819264e-09,0.002258296844989675,0.0019935437825793056,0.00013237653120518468,1.6483337558957428e-05,3.0214480222585887
23200.0,7.155248801379594e-09,0.0022584029128951562,0.0019935677032462606,0.0001324176048244478,1.647862016570102e-05,3.02238551325159
23400.0,7.1531630065546225e-09,0.00225850558410467,0.001993590166067667,0.00013245770901850157,1.647400217744924e-05,3.0233008774532717
23600.0,7.151126687976225e-09,0.0022586049102841497,0.0019936112533271936,0.00013249682847847805,1.6469486664179517e-05,3.0241937654440783
23800.0,7.149139301450634e-09,0.002258700952475312,0.001993631004012892,0.00013253497423120993,1.6465072707887033e-05,3.025064428907609
24000.0,7.147199440963572e-09,0.0022587938258516083,0.0019936494765585,0.00013257217464655423,1.6460757565390886e-05,3.0259135153759273
24200.0,7.145302751316629e-09,0.0022588837582494686,0.0019936667320446513,0.00013260851310240864,1.6456531721941196e-05,3.0267429279203837
24400.0,7.143447136950499e-09,0.0022589707628572673,0.001993682715801806,0.00013264402352773067,1.6452389910596348e-05,3.0275534409575666
24600.0,7.1416328822141345e-09,0.0022590548512014387,0.0019936974495475355,0.0001326787008269516,1.6448332975885e-05,3.0283449381829013
24800.0,7.139858861650025e-09,0.00225913614292537,0.0019937110041296246,0.0001327125693978727,1.6444358920012208e-05,3.029117976467669
25000.0,7.138124206317657e-09,0.0022592146680626697,0.0019937233796063977,0.00013274564422813598,1.6440465751261938e-05,3.0298728978995544
25200.0,7.136431430704747e-09,0.0022592903149227616,0.0019937345619723584,0.0001327778764752016,1.6436659154326055e-05,3.030608587664672
25400.0,7.1347799073024026e-09,0.0022593632877575477,0.001993744712912116,0.00013280928742271584,1.64329390251836e-05,3.0313255315548018
25600.0,7.13316695989861e-09,0.0022594336653036146,0.001993753815915773,0.00013283992469392087,1.642929907121971e-05,3.0320248165537897
25800.0,7.1315909357262095e-09,0.00225950151945537,0.001993761881883235,0.00013286981878606746,1.6425735582595302e-05,3.032707138750717
26000.0,7.1300506461448425e-09,0.0022595669033157956,0.0019937689202617253,0.00013289899152703517,1.642224590609311e-05,3.0333729963592995
26200.0,7.128537883190105e-09,0.0022596302779157,0.001993775069342992,0.00013292760428635394,1.6418812281907133e-05,3.034026072582615
26400.0,7.12705049438477e-09,0.0022596914765502787,0.0019937801123948743,0.00013295568207770218,1.6415427973152236e-05,3.0346669383491234
26600.0,7.125590609327107e-09,0.0022597504797032355,0.0019937841034513674,0.00013298318812593403,1.6412098335782813e-05,3.0352947542789837
26800.0,7.124158162389071e-09,0.002259807352674986,0.0019937870991460914,0.00013301012676444728,1.6408823690437346e-05,3.0359096192804844
27000.0,7.122752640364159e-09,0.0022598621351934524,0.0019937891187689952,0.0001330365082122286,1.6405603019013565e-05,3.036511766598423
27200.0,7.121370726319827e-09,0.0022599150219431152,0.0019937902258321412,0.000133062398055487,1.6402429209167553e-05,3.037102693215078
27400.0,7.120011168784208e-09,0.0022599659890327707,0.001993790358942739,0.0001330878150450159,1.6399298877916614e-05,3.0376828271107525
27600.0,7.118674399114056e-09,0.0022600150443081364,0.00199378954015448,0.00013311275207682823,1.6396213204752583e-05,3.038252006139425
27800.0,7.117359992381708e-09,0.002260062235691615,0.001993787798619042,0.00013313721853628648,1.6393171454987324e-05,3.038810444518711
28000.0,7.116067316501412e-09,0.0022601076105309903,0.0019937851561033755,0.00013316122721380736,1.639017235576792e-05,3.0393584341854
28200.0,7.11480381213259e-09,0.0022601507817155454,0.001993781517686431,0.00013318463201455718,1.6387232268522643e-05,3.039892640576012
28400.0,7.113570273918697e-09,0.002260192028764982,0.0019937771572685987,0.00013320743574819164,1.6384355278353108e-05,3.0404131278199564
28600.0,7.1123623461686904e-09,0.00226023148298619,0.001993772047792193,0.00013322971759699843,1.6381531133343027e-05,3.040921703225254
28800.0,7.111178286393293e-09,0.0022602691765909308,0.001993766160961913,0.0001332515078145088,1.6378755590356828e-05,3.0414190573181727
29000.0,7.1100169858622385e-09,0.0022603051639090207,0.001993759508857819,0.0001332728275256008,1.6376026197654527e-05,3.041905672266666
