M1.L_b.cs Time [a],H,CA,HCO3,CO3,CO2aq,Omega
0.0,7.227991642377779e-09,0.0021422613970727,0.0016505815042219,0.0002458399464254,8.879914072823557e-06,5.751401837423425
200.0,7.219060673356767e-09,0.0021429658246567753,0.0016506555669701449,0.0002461551288433152,8.869339929790804e-06,5.758775499693439
400.0,7.215472998385475e-09,0.0021430050890501448,0.0016504972783096044,0.00024625390537027017,8.864082013798234e-06,5.761086367015383
600.0,7.2128690103725705e-09,0.002143051724562552,0.0016503962626927856,0.0002463277309348831,8.86034074632923e-06,5.762813508979646
800.0,7.210596409229476e-09,0.002143098759207322,0.0016503129129194223,0.00024639292314394985,8.857101734772543e-06,5.764338674423522
1000.0,7.2084566424065365e-09,0.00214314344217989,0.0016502346831993922,0.0002464543794902489,8.854053634130212e-06,5.765776439718239
1200.0,7.206388181984533e-09,0.002143184982551699,0.0016501577338390075,0.0002465136243563458,8.851100230828019e-06,5.767162467646905
1400.0,7.204371271145761e-09,0.0021432232062294763,0.0016500808952542812,0.0002465711554875975,8.84821097025439e-06,5.768508402914145
1600.0,7.202398883228529e-09,0.0021432581382469728,0.001650003820366505,0.00024662715894023393,8.845375352887173e-06,5.769818598287511
1800.0,7.200468112164283e-09,0.0021432898202090127,0.0016499263914522358,0.0002466817143783885,8.842589172359237e-06,5.771094917501723
2000.0,7.198577122438043e-09,0.0021433183346971875,0.0016498485784736683,0.0002467348781117596,8.839850008048717e-06,5.7723386779167445
2200.0,7.196739477049608e-09,0.002143342246779001,0.001649769995967168,0.00024678612540591637,8.837172444455996e-06,5.77353760342117
2400.0,7.194952412602874e-09,0.002143362758182881,0.0016496914269522771,0.00024683566561530185,8.834557275542543e-06,5.774696591842007
2600.0,7.193209056088722e-09,0.002143380226683025,0.0016496127872479395,0.00024688371971754277,8.831995602829289e-06,5.775820812929518
2800.0,7.1915066863357264e-09,0.002143394713157291,0.0016495339829037798,0.00024693036512675557,8.829483575067379e-06,5.776912077779493
3000.0,7.189843699181958e-09,0.0021434062844832434,0.0016494549833428308,0.0002469756505702063,8.827019052596728e-06,5.777971526361623
3200.0,7.188241042394598e-09,0.0021434127638320036,0.0016493752239474236,0.00024701876994229004,8.824624724810344e-06,5.7789802999130195
3400.0,7.186695248933281e-09,0.002143415909017232,0.0016492958777820945,0.00024706001561756866,8.822302602465673e-06,5.779945238508364
3600.0,7.185196678044798e-09,0.0021434162038996255,0.001649216810307898,0.0002470996967958637,8.82004012023568e-06,5.780873575847661
3800.0,7.183741829690002e-09,0.0021434137126499398,0.001649137888322569,0.0002471379121636853,8.817832260431626e-06,5.781767620692295
4000.0,7.18232865934854e-09,0.0021434085301610356,0.0016490590790118364,0.0002471747255745996,8.815676329985088e-06,5.782628866890291
4200.0,7.1809632905645516e-09,0.002143399953094824,0.0016489801678979713,0.00024720989259842624,8.813578690604752e-06,5.78345159602115
4400.0,7.179643608315858e-09,0.0021433886424164785,0.0016489015539225777,0.0002472435442469504,8.811538870320281e-06,5.784238873092955
4600.0,7.178365567662547e-09,0.002143374813000372,0.001648823190280517,0.0002472758113599274,8.809551646062519e-06,5.78499375908916
4800.0,7.177127276035236e-09,0.0021433585280199717,0.0016487450272401468,0.0002473067503899124,8.80761442164377e-06,5.785717574711849
5000.0,7.175927293583308e-09,0.0021433398722374166,0.0016486670555012658,0.0002473364083680754,8.805725373027453e-06,5.786411420250707
5200.0,7.174824118029979e-09,0.0021433128357901364,0.0016485877567066346,0.0002473625395417509,8.803948164905358e-06,5.787022756538715
5400.0,7.173810243425556e-09,0.0021432820486172346,0.0016485102979418265,0.00024738587533770404,8.802290484382345e-06,5.787568695234497
5600.0,7.1728619778697826e-09,0.0021432486531317314,0.0016484343039984799,0.00024740717456662575,8.80072123996033e-06,5.788066988640988
5800.0,7.1719718115860895e-09,0.002143212713048219,0.0016483594275006788,0.00024742664277377,8.799229349369664e-06,5.7885224454695825
6000.0,7.171136532130296e-09,0.002143174298418431,0.0016482855535987057,0.0002474443724098626,8.797810246516206e-06,5.788937228596095
6200.0,7.170406419488318e-09,0.002143128150812525,0.001648211308782764,0.0002474584210148805,8.796518272624295e-06,5.7892658943556174
6400.0,7.169773839785484e-09,0.002143078402351357,0.0016481394682792518,0.0002474694670360527,8.795358856296376e-06,5.789524314955646
6600.0,7.169217684300481e-09,0.002143026107015728,0.0016480697238181446,0.0002474781915987917,8.794304439965327e-06,5.789728425259514
6800.0,7.168731224245682e-09,0.0021429712311727346,0.0016480016935106674,0.00024748476883103363,8.793344717757806e-06,5.789882298973494
7000.0,7.168310401820701e-09,0.002142914055715432,0.0016479353788612116,0.00024748933842711016,8.792474708052252e-06,5.789989204233007
7200.0,7.167811681920266e-09,0.002142868991345332,0.0016478742401031946,0.0002474973756210686,8.79153681037205e-06,5.790177233610544
7400.0,7.167248434834052e-09,0.002142825407813013,0.0016478108112839267,0.00024750729826454316,8.79050759978843e-06,5.790409372897676
7600.0,7.166671515470024e-09,0.0021427809470005495,0.001647745979233886,0.0002475174838833318,8.789454189063787e-06,5.790647664466919
7800.0,7.166095032874954e-09,0.0021427356980388878,0.0016476805618075856,0.0002475275681156511,8.788398247385615e-06,5.790883584109489
8000.0,7.1655230757480004e-09,0.0021426897483303614,0.001647614843475728,0.0002475374524273167,8.787346306754658e-06,5.791114826627647
8200.0,7.165317186438364e-09,0.002142606363202655,0.001647539786531093,0.000247533288335781,8.786693521808226e-06,5.791017408107761
8400.0,7.1654396136846845e-09,0.002142513052993958,0.0016474745403225373,0.00024751925633571044,8.786495673650013e-06,5.790689130819379
8600.0,7.165754222670714e-09,0.0021424162698484724,0.0016474168314061224,0.000247499719221175,8.7865736642784e-06,5.790232061909013
8800.0,7.166222757470884e-09,0.002142315872108098,0.001647364515545512,0.00024747567828129304,8.78686912950111e-06,5.7896696264390215
9000.0,7.166830180203008e-09,0.0021422120640347112,0.001647316947551398,0.0002474475582416566,8.787360177130317e-06,5.789011760823669
9200.0,7.1675338726828e-09,0.0021421086612845937,0.0016472747949495042,0.00024741693316754473,8.787998106567674e-06,5.788295290168353
9400.0,7.168333402529556e-09,0.002142003175194484,0.00164723611793381,0.000247383528630337,8.78877203736928e-06,5.787513794241965
9600.0,7.169239540971899e-09,0.002141895076463644,0.0016472010775416457,0.00024734699946099916,8.789696032618735e-06,5.786659197848238
9800.0,7.17025148134001e-09,0.0021417848188128173,0.001647169975590302,0.0002473074216112576,8.790770713117948e-06,5.785733277870486
10000.0,7.171324503653999e-09,0.0021416778895008634,0.0016471446558327667,0.00024726661683404836,8.791951095748563e-06,5.784778654042954
10200.0,7.174047681902254e-09,0.0021414097194868247,0.001647082775966036,0.0002471634717603943,8.79495925595994e-06,5.782365584992294
10400.0,7.178224887167667e-09,0.002141104889631856,0.0016470695696729832,0.00024701765997943643,8.800009704244458e-06,5.778954332439106
10600.0,7.1832352711741266e-09,0.002140793598020544,0.0016470951927804085,0.0002468492026200677,8.806289085636488e-06,5.775013288762973
10800.0,7.188879944144961e-09,0.002140477511135056,0.0016471502620132121,0.000246663624560922,8.81350383606812e-06,5.770671707966706
11000.0,7.195108901430114e-09,0.0021401542432468957,0.0016472301668527933,0.00024646203819705123,8.821568405121584e-06,5.765955614425262
11200.0,7.202536374102988e-09,0.0021397611116582725,0.0016473188445209155,0.0002462211335686785,8.831150257487168e-06,5.760319673877711
11400.0,7.21106414449494e-09,0.0021393507647057787,0.0016474513066481323,0.0002459497290288232,8.842317259433467e-06,5.753970190842486
11600.0,7.220391147597962e-09,0.0021389387004509576,0.001647623353922108,0.0002456576732644248,8.854678792130448e-06,5.747137574400712
11800.0,7.2304108975318315e-09,0.002138527114180155,0.0016478308370476424,0.0002453481385662562,8.868083051874823e-06,5.73989603998908
12000.0,7.241064793887518e-09,0.002138118835418803,0.0016480726313598051,0.00024502310202949903,8.8824532070706e-06,5.732291841558692
12200.0,7.249965043529802e-09,0.002137952882835357,0.0016484085202339164,0.0002447721813007204,8.895183477428646e-06,5.726421575308115
12400.0,7.257330633535519e-09,0.002137851961992309,0.0016487138589472443,0.00024456905152253226,8.905869874774991e-06,5.721669373737565
12600.0,7.264052659775768e-09,0.002137772532920495,0.0016490017404173882,0.00024438539625155345,8.915675334986465e-06,5.717372776385025
12800.0,7.270398455650325e-09,0.0021377139713474667,0.0016492856981480456,0.0002442141365997106,8.925000588618794e-06,5.713366173346716
13000.0,7.276476720753382e-09,0.002137674654396569,0.001649570197575805,0.000244052228410382,8.934002986315994e-06,5.7095783468720605
13200.0,7.2815912490226115e-09,0.0021377281457947623,0.0016498760823270156,0.00024392603173387334,8.941940388795203e-06,5.70662598779575
13400.0,7.285860809954055e-09,0.0021378150054422417,0.0016501638007543624,0.00024382560234393962,8.948743775974454e-06,5.704276451903823
13600.0,7.2896109833080175e-09,0.002137918914640718,0.0016504376877415291,0.0002437406134495945,8.954835905268543e-06,5.702288144917084
13800.0,7.292959028231351e-09,0.0021380379035424624,0.0016507023369088242,0.0002436677833168191,8.960385346721894e-06,5.700584290984659
14000.0,7.295967650355986e-09,0.002138169591870408,0.001650959188041681,0.0002436052019143634,8.965476666603534e-06,5.699120205109659
14200.0,7.298837309077171e-09,0.002138295886690025,0.0016512046334112862,0.00024354562663936937,8.970336385434011e-06,5.697726447296708
14400.0,7.301581583105912e-09,0.0021384272624036162,0.0016514474722264453,0.00024348989508858544,8.97502886525528e-06,5.6964226130409585
14600.0,7.304165298259317e-09,0.0021385648871639893,0.0016516868069895588,0.00024343904008721526,8.979505900768214e-06,5.695232865188441
14800.0,7.3065885647363434e-09,0.0021387078334431046,0.0016519219401261612,0.0002433929466584717,8.983763727777368e-06,5.69415451386831
15000.0,7.308860887786857e-09,0.0021388550674432305,0.0016521525740188247,0.0002433512467122029,8.987812308994605e-06,5.693178947646961
15200.0,7.311613912648095e-09,0.0021389435065584986,0.0016523624628625468,0.00024329052184797592,8.992339982012688e-06,5.6917582953047745
15400.0,7.31479103059365e-09,0.002139019840760851,0.001652584718832073,0.00024321756096438898,8.99745749364351e-06,5.690051382469723
15600.0,7.318158253891531e-09,0.002139095237038845,0.0016528159129094342,0.00024313966206470532,9.002858610058736e-06,5.688228945224319
15800.0,7.321644152825241e-09,0.0021391699309808894,0.001653052542445646,0.00024305869426762168,9.008436522455789e-06,5.68633471142021
16000.0,7.325220595639745e-09,0.0021392442135032305,0.0016532933771142447,0.0002429754181944929,9.014150009874536e-06,5.684386475720642
16200.0,7.32963259390145e-09,0.0021392424472530536,0.0016535181086954171,0.00024286216927881822,9.020805282651425e-06,5.68173702826034
16400.0,7.334790084329989e-09,0.002139223037870642,0.0016537671373203476,0.00024272795027514718,9.02851230269897e-06,5.678596987613751
16600.0,7.340391911296042e-09,0.0021392004471841217,0.0016540361233723703,0.00024258216190587573,9.036877296118156e-06,5.67518628277471
16800.0,7.346336382901998e-09,0.002139175957278752,0.0016543207861551756,0.00024242758556178821,9.045752156330985e-06,5.671569984112374
17000.0,7.352577770716544e-09,0.0021391505911459345,0.0016546195196456579,0.00024226553575013834,9.055072203161527e-06,5.66777884439717
17200.0,7.356928139414084e-09,0.002139341570197323,0.001654988909714702,0.0002421763302413104,9.062452623221891e-06,5.665691890121263
17400.0,7.359587803659145e-09,0.0021395867958845694,0.0016553140520134157,0.00024213637193557685,9.06750993629878e-06,5.664757069412269
17600.0,7.3613806833822785e-09,0.0021398461479651917,0.0016556059684976088,0.00024212008973379143,9.071318340446162e-06,5.664376148871781
17800.0,7.362560301696551e-09,0.0021401192070322973,0.0016558772722021884,0.0002421209674150545,9.074258718996505e-06,5.664396682140286
18000.0,7.363238980049522e-09,0.002140403480054408,0.0016561317625151586,0.00024213585876962473,9.07648992448792e-06,5.66474506394431
18200.0,7.363346721316759e-09,0.002140709864499873,0.0016563743102142175,0.00024216777714282768,9.077952045464513e-06,5.665491791207134
18400.0,7.362940484373089e-09,0.0021410261906953058,0.0016565983884077086,0.0002422139011437986,9.078679232333718e-06,5.666570857761576
18600.0,7.362099789922349e-09,0.0021413488016686928,0.0016568051985189369,0.00024227180157487794,9.078775891178384e-06,5.667925432762666
18800.0,7.360876996019217e-09,0.002141674783162634,0.0016569951310507036,0.0002423398260559651,9.078308567425013e-06,5.66951685893731
19000.0,7.3592789313012335e-09,0.0021420050424408085,0.0016571692117559325,0.000242417915342438,9.077291186524567e-06,5.671343750263287
19200.0,7.355820604051158e-09,0.002142488794583784,0.001657367096895424,0.0002425608488441799,9.07410894215486e-06,5.674687665751803
19400.0,7.350684526704586e-09,0.002143009087722152,0.001657507345120807,0.00024275087130067247,9.068540423959478e-06,5.679133222795375
19600.0,7.344488751172012e-09,0.002143536451608621,0.001657598437589314,0.00024296900700965338,9.061394659183792e-06,5.684236486669626
19800.0,7.33743079587382e-09,0.002144069782441051,0.0016576493883293886,0.00024321019705583118,9.052965038951265e-06,5.6898791045392
20000.0,7.329614114370375e-09,0.002144605855669081,0.0016576627828777727,0.00024347153639565423,9.04339384566195e-06,5.695993113190375
20200.0,7.32383538223577e-09,0.002144867102820909,0.0016575677539550939,0.0002436496744329075,9.035745932151995e-06,5.700160635391996
20400.0,7.319841210956385e-09,0.002145059807762142,0.0016575111941405987,0.00024377430681077155,9.030509991809674e-06,5.703076397852379
20600.0,7.316617842907939e-09,0.0021452322497128146,0.0016574784733192139,0.00024387688819680036,9.02635512079798e-06,5.70547627948541
20800.0,7.313830017341772e-09,0.002145386935191344,0.0016574543441367747,0.0002439662955272847,9.022784486466045e-06,5.7075679553595045
21000.0,7.311295827760379e-09,0.002145532138429862,0.0016574358654130063,0.0002440481365084279,9.01955759754125e-06,5.709482617220474
21200.0,7.308880692200706e-09,0.0021456736673511616,0.0016574206042587044,0.00024412653154622858,9.016495151141155e-06,5.711316661569278
21400.0,7.306542235039407e-09,0.0021458111620485075,0.0016574061060215348,0.00024420252801348635,9.013531500936243e-06,5.713094591591552
21600.0,7.304266157523314e-09,0.00214594455807831,0.0016573915895339048,0.0002442764842722026,9.010644754382205e-06,5.7148247911317585
21800.0,7.302046872523734e-09,0.0021460739071562556,0.001657376811833896,0.0002443485476611798,9.00782669675435e-06,5.716510707166971
22000.0,7.29988152634535e-09,0.0021461992966509383,0.0016573616980824484,0.00024441879928424495,9.005073400549283e-06,5.7181542371134
22200.0,7.297781746939869e-09,0.00214631945269049,0.0016573458711301036,0.0002444867907801932,9.00239716097634e-06,5.7197448916039
22400.0,7.295744500087438e-09,0.0021464355000135396,0.0016573300482052799,0.00024455272590412987,8.999798130911825e-06,5.721287437469511
22600.0,7.293763128126718e-09,0.0021465477734313484,0.0016573141483032198,0.00024461681256406434,8.997267655766754e-06,5.722786738698057
22800.0,7.291834664543297e-09,0.0021466563645107712,0.0016572980930180943,0.00024467913574633847,8.994801649031894e-06,5.724244783536812
23000.0,7.289957106462715e-09,0.0021467613746971844,0.0016572818611021109,0.00024473975679753675,8.992397523578384e-06,5.725663007183204
23200.0,7.288121337598149e-09,0.0021468636468014142,0.0016572656344056224,0.0002447990061978959,8.990045019649203e-06,5.727049141190499
23400.0,7.286326583687642e-09,0.0021469627073069327,0.001657249010425276,0.00024485684844082834,8.987740997758176e-06,5.728402354885505
23600.0,7.284574162307511e-09,0.0021470585337635736,0.0016572320433303135,0.00024491324521663,8.985487376903791e-06,5.729721752016389
23800.0,7.28286363291482e-09,0.002147151192127894,0.001657214764282119,0.00024496821392288736,8.983283782339809e-06,5.7310077395980095
24000.0,7.28119380450709e-09,0.002147240795558237,0.001657197201768035,0.0002450217968951009,8.981128898962387e-06,5.7322613080653175
24200.0,7.279559881569883e-09,0.0021473277814836778,0.0016571794470400315,0.00024507416722182316,8.979017305603128e-06,5.7334865068083065
24400.0,7.27796091479747e-09,0.002147411971025622,0.0016571613151666693,0.00024512532792947633,8.976946828839999e-06,5.734683406629832
24600.0,7.27639733937684e-09,0.0021474933415522096,0.0016571428136829165,0.00024517526393464653,8.974918046185214e-06,5.73585165465488
24800.0,7.274868265117172e-09,0.0021475720040091428,0.0016571239842325942,0.0002452240098882743,8.972930084983743e-06,5.736992061538863
25000.0,7.273372872488585e-09,0.0021476479997070393,0.001657104818271844,0.0002452715907175977,8.970981887843022e-06,5.738105210452113
25200.0,7.271914693556378e-09,0.002147720944151773,0.0016570852051397088,0.00024531786950603206,8.969077211885812e-06,5.739187898244333
25400.0,7.270492171088517e-09,0.0021477912674670078,0.0016570653978992636,0.0002453629347838721,8.967215505744893e-06,5.740242196073234
25600.0,7.269102715648109e-09,0.002147859093613155,0.0016570453594199849,0.00024540686709658517,8.96539337386852e-06,5.741269988292253
25800.0,7.267744926266487e-09,0.0021479244817330764,0.0016570250642542609,0.0002454497087394078,8.963608949963766e-06,5.742272264394371
26000.0,7.266417750956323e-09,0.002147987485853039,0.0016570045010527543,0.0002454914924001423,8.96186087454866e-06,5.743249789107572
26200.0,7.265111818459574e-09,0.0021480490303460364,0.0016569838959605812,0.0002455325671927276,8.960138812221614e-06,5.744210729918787
26400.0,7.263827096807513e-09,0.0021481085355972013,0.0016569628013650348,0.00024557286711608325,8.958440302663136e-06,5.745153542739103
26600.0,7.262565862412939e-09,0.002148165907271041,0.0016569412644443645,0.0002456123214133382,8.95676840875694e-06,5.746076572218347
26800.0,7.2613281142441966e-09,0.00214822121282658,0.0016569193384460721,0.00024565093719025404,8.955123417132794e-06,5.746979984595125
27000.0,7.260113422759665e-09,0.002148274492426586,0.0016568970331636403,0.00024568872963147284,8.953504850907519e-06,5.747864135112675
27200.0,7.258918103864883e-09,0.0021483261082555216,0.0016568744367549159,0.00024572583575030286,8.95190864293649e-06,5.74873222918413
27400.0,7.257741769610809e-09,0.0021483758821782936,0.0016568513925590451,0.00024576224480962424,8.950333468311965e-06,5.749584015615605
27600.0,7.256584919567607e-09,0.0021484237987471066,0.0016568279157259092,0.0002457979415105987,8.948780025127114e-06,5.7504191364922566
27800.0,7.2554472355875555e-09,0.002148469902057342,0.0016568040246034133,0.0002458329387269644,8.947248020230148e-06,5.751237892993943
28000.0,7.254328182647012e-09,0.0021485142381539395,0.0016567797276672944,0.00024586725524332255,8.945736839646268e-06,5.752040724584603
28200.0,7.253236969018342e-09,0.002148555856226724,0.0016567547740864842,0.0002459005410701199,8.944256484317496e-06,5.752819443292387
28400.0,7.252172037468417e-09,0.0021485955345529164,0.0016567296838418846,0.0002459329253555159,8.942807840824681e-06,5.753577070526035
28600.0,7.2511291579844325e-09,0.002148633482841722,0.0016567043985161903,0.00024596454216276585,8.941385376696857e-06,5.754316742682471
28800.0,7.250106754486258e-09,0.0021486697298495755,0.0016566788587738576,0.00024599543553785897,8.939986827510241e-06,5.755039490213368
29000.0,7.249103860889765e-09,0.002148704325443938,0.0016566530533797287,0.00024602563603210456,8.938610940814216e-06,5.75574602786366
29200.0,7.2481348201195154e-09,0.0021487357861176945,0.001656626590187829,0.0002460545979649328,8.937273285975432e-06,5.756423589489041
